t_s [s], Tg [MeV], rho_tot, rho_rad, rho_dm, Omega_m, Omega_rad
7.386520e-03 1.000000e+01 3.536347e+06 3.532046e+04 3.501026e+06 9.900122e-01 9.987838e-03
7.517196e-03 9.293973e+00 2.753889e+06 2.603973e+04 2.727850e+06 9.905444e-01 9.455618e-03
7.650184e-03 8.698846e+00 2.196956e+06 1.986050e+04 2.177096e+06 9.909600e-01 9.040006e-03
7.785524e-03 8.199175e+00 1.787284e+06 1.557364e+04 1.771710e+06 9.912864e-01 8.713578e-03
7.923258e-03 7.774675e+00 1.477719e+06 1.249749e+04 1.465221e+06 9.915427e-01 8.457290e-03
8.063430e-03 7.409934e+00 1.238500e+06 1.022689e+04 1.228273e+06 9.917425e-01 8.257483e-03
8.206081e-03 7.093416e+00 1.050107e+06 8.510131e+03 1.041597e+06 9.918959e-01 8.104061e-03
8.351255e-03 6.816350e+00 8.993152e+05 7.185025e+03 8.921301e+05 9.920106e-01 7.989440e-03
8.498998e-03 6.571935e+00 7.769112e+05 6.143620e+03 7.707676e+05 9.920923e-01 7.907750e-03
8.649355e-03 6.354809e+00 6.763216e+05 5.312085e+03 6.710095e+05 9.921456e-01 7.854377e-03
8.802372e-03 6.160699e+00 5.927578e+05 4.638729e+03 5.881191e+05 9.921743e-01 7.825673e-03
8.958095e-03 5.986151e+00 5.226669e+05 4.086582e+03 5.185803e+05 9.921813e-01 7.818713e-03
9.116574e-03 5.828341e+00 4.633679e+05 3.628675e+03 4.597392e+05 9.921689e-01 7.831088e-03
9.277856e-03 5.684940e+00 4.128093e+05 3.245022e+03 4.095643e+05 9.921392e-01 7.860825e-03
9.441992e-03 5.554018e+00 3.694002e+05 2.920587e+03 3.664796e+05 9.920937e-01 7.906297e-03
9.609031e-03 5.433958e+00 3.318919e+05 2.643902e+03 3.292480e+05 9.920338e-01 7.966155e-03
9.779026e-03 5.323399e+00 2.992938e+05 2.406095e+03 2.968877e+05 9.919608e-01 8.039242e-03
9.952027e-03 5.221182e+00 2.708122e+05 2.200235e+03 2.686120e+05 9.918754e-01 8.124577e-03
1.012809e-02 5.126326e+00 2.458055e+05 2.020849e+03 2.437846e+05 9.917787e-01 8.221336e-03
1.030727e-02 5.037992e+00 2.237507e+05 1.863579e+03 2.218871e+05 9.916712e-01 8.328820e-03
1.048961e-02 4.955456e+00 2.042184e+05 1.724916e+03 2.024935e+05 9.915536e-01 8.446426e-03
1.067519e-02 4.878095e+00 1.868531e+05 1.602009e+03 1.852511e+05 9.914264e-01 8.573629e-03
1.086404e-02 4.805366e+00 1.713588e+05 1.492530e+03 1.698663e+05 9.912900e-01 8.709970e-03
1.105624e-02 4.736797e+00 1.574876e+05 1.394562e+03 1.560930e+05 9.911449e-01 8.855059e-03
1.125184e-02 4.671979e+00 1.450307e+05 1.306518e+03 1.437241e+05 9.909914e-01 9.008561e-03
1.145089e-02 4.610553e+00 1.338110e+05 1.227072e+03 1.325839e+05 9.908298e-01 9.170189e-03
1.165347e-02 4.552203e+00 1.236780e+05 1.155114e+03 1.225229e+05 9.906603e-01 9.339688e-03
1.185964e-02 4.496648e+00 1.145027e+05 1.089703e+03 1.134130e+05 9.904832e-01 9.516836e-03
1.206945e-02 4.443641e+00 1.061744e+05 1.030045e+03 1.051444e+05 9.902986e-01 9.701436e-03
1.228297e-02 4.392964e+00 9.859768e+04 9.754588e+02 9.762222e+04 9.901067e-01 9.893324e-03
1.250027e-02 4.344422e+00 9.168971e+04 9.253655e+02 9.076434e+04 9.899076e-01 1.009236e-02
1.272141e-02 4.297842e+00 8.537861e+04 8.792650e+02 8.449935e+04 9.897016e-01 1.029842e-02
1.294647e-02 4.253069e+00 7.960166e+04 8.367263e+02 7.876494e+04 9.894886e-01 1.051142e-02
1.317550e-02 4.209964e+00 7.430393e+04 7.973741e+02 7.350656e+04 9.892688e-01 1.073125e-02
1.340859e-02 4.168401e+00 6.943719e+04 7.608820e+02 6.867630e+04 9.890422e-01 1.095785e-02
1.364581e-02 4.128268e+00 6.495896e+04 7.269650e+02 6.423199e+04 9.888089e-01 1.119114e-02
1.388722e-02 4.089463e+00 6.083172e+04 6.953732e+02 6.013635e+04 9.885689e-01 1.143109e-02
1.413290e-02 4.051894e+00 5.702227e+04 6.658868e+02 5.635638e+04 9.883223e-01 1.167766e-02
1.438292e-02 4.015478e+00 5.350110e+04 6.383119e+02 5.286278e+04 9.880692e-01 1.193082e-02
1.463737e-02 3.980138e+00 5.024194e+04 6.124768e+02 4.962946e+04 9.878095e-01 1.219055e-02
1.489632e-02 3.945807e+00 4.722137e+04 5.882290e+02 4.663314e+04 9.875432e-01 1.245684e-02
1.515986e-02 3.912421e+00 4.441843e+04 5.654328e+02 4.385300e+04 9.872703e-01 1.272969e-02
1.542805e-02 3.879921e+00 4.181432e+04 5.439664e+02 4.127035e+04 9.869909e-01 1.300909e-02
1.570099e-02 3.848256e+00 3.939217e+04 5.237216e+02 3.886845e+04 9.867049e-01 1.329507e-02
1.597876e-02 3.817376e+00 3.713681e+04 5.046009e+02 3.663221e+04 9.864124e-01 1.358762e-02
1.626144e-02 3.787238e+00 3.503454e+04 4.865169e+02 3.454802e+04 9.861132e-01 1.388678e-02
1.654912e-02 3.757801e+00 3.307299e+04 4.693906e+02 3.260360e+04 9.858074e-01 1.419257e-02
1.684190e-02 3.729026e+00 3.124097e+04 4.531508e+02 3.078782e+04 9.854950e-01 1.450502e-02
1.713985e-02 3.700878e+00 2.952834e+04 4.377328e+02 2.909061e+04 9.851758e-01 1.482416e-02
1.744307e-02 3.673326e+00 2.792589e+04 4.230782e+02 2.750281e+04 9.848500e-01 1.515003e-02
1.775166e-02 3.646339e+00 2.642523e+04 4.091333e+02 2.601609e+04 9.845173e-01 1.548268e-02
1.806570e-02 3.619890e+00 2.501872e+04 3.958499e+02 2.462287e+04 9.841779e-01 1.582215e-02
1.838531e-02 3.593951e+00 2.369942e+04 3.831836e+02 2.331623e+04 9.838315e-01 1.616848e-02
1.871056e-02 3.568500e+00 2.246095e+04 3.710940e+02 2.208986e+04 9.834783e-01 1.652174e-02
1.904157e-02 3.543514e+00 2.129752e+04 3.595440e+02 2.093797e+04 9.831180e-01 1.688197e-02
1.937844e-02 3.518972e+00 2.020378e+04 3.484996e+02 1.985528e+04 9.827508e-01 1.724923e-02
1.972127e-02 3.494855e+00 1.917485e+04 3.379299e+02 1.883692e+04 9.823764e-01 1.762360e-02
2.007016e-02 3.471143e+00 1.820625e+04 3.278057e+02 1.787845e+04 9.819949e-01 1.800512e-02
2.042522e-02 3.447820e+00 1.729385e+04 3.181009e+02 1.697575e+04 9.816061e-01 1.839387e-02
2.078656e-02 3.424870e+00 1.643386e+04 3.087908e+02 1.612507e+04 9.812101e-01 1.878991e-02
2.115430e-02 3.402277e+00 1.562277e+04 2.998528e+02 1.532292e+04 9.808067e-01 1.919332e-02
2.152855e-02 3.380027e+00 1.485736e+04 2.912660e+02 1.456609e+04 9.803958e-01 1.960416e-02
2.190941e-02 3.358107e+00 1.413465e+04 2.830111e+02 1.385164e+04 9.799775e-01 2.002251e-02
2.229701e-02 3.336504e+00 1.345188e+04 2.750702e+02 1.317681e+04 9.795515e-01 2.044845e-02
2.269147e-02 3.315206e+00 1.280651e+04 2.674264e+02 1.253909e+04 9.791179e-01 2.088206e-02
2.309291e-02 3.294202e+00 1.219618e+04 2.600642e+02 1.193612e+04 9.786766e-01 2.132342e-02
2.350145e-02 3.273482e+00 1.161870e+04 2.529693e+02 1.136573e+04 9.782274e-01 2.177261e-02
2.391721e-02 3.253034e+00 1.107203e+04 2.461280e+02 1.082590e+04 9.777703e-01 2.222971e-02
2.434033e-02 3.232850e+00 1.055429e+04 2.395277e+02 1.031476e+04 9.773052e-01 2.269481e-02
2.477094e-02 3.212921e+00 1.006373e+04 2.331566e+02 9.830577e+03 9.768320e-01 2.316801e-02
2.520917e-02 3.193237e+00 9.598723e+03 2.270038e+02 9.371719e+03 9.763506e-01 2.364937e-02
2.565515e-02 3.173791e+00 9.157741e+03 2.210587e+02 8.936683e+03 9.758610e-01 2.413900e-02
2.610901e-02 3.154575e+00 8.739374e+03 2.153119e+02 8.524062e+03 9.753630e-01 2.463699e-02
2.657091e-02 3.135582e+00 8.342303e+03 2.097541e+02 8.132549e+03 9.748566e-01 2.514343e-02
2.704098e-02 3.116804e+00 7.965297e+03 2.043769e+02 7.760920e+03 9.743416e-01 2.565841e-02
2.751936e-02 3.098235e+00 7.607207e+03 1.991722e+02 7.408035e+03 9.738180e-01 2.618204e-02
2.800621e-02 3.079869e+00 7.266959e+03 1.941324e+02 7.072827e+03 9.732856e-01 2.671440e-02
2.850167e-02 3.061699e+00 6.943548e+03 1.892505e+02 6.754297e+03 9.727444e-01 2.725560e-02
2.900590e-02 3.043719e+00 6.636035e+03 1.845198e+02 6.451515e+03 9.721943e-01 2.780573e-02
2.951905e-02 3.025924e+00 6.343537e+03 1.799337e+02 6.163603e+03 9.716351e-01 2.836489e-02
3.004127e-02 3.008309e+00 6.065231e+03 1.754865e+02 5.889745e+03 9.710668e-01 2.893319e-02
3.057273e-02 2.990869e+00 5.800343e+03 1.711723e+02 5.629171e+03 9.704893e-01 2.951072e-02
3.111360e-02 2.973597e+00 5.548148e+03 1.669859e+02 5.381162e+03 9.699024e-01 3.009759e-02
3.166403e-02 2.956491e+00 5.307964e+03 1.629221e+02 5.145042e+03 9.693061e-01 3.069390e-02
3.222421e-02 2.939545e+00 5.079152e+03 1.589762e+02 4.920176e+03 9.687002e-01 3.129975e-02
3.279429e-02 2.922755e+00 4.861112e+03 1.551436e+02 4.705968e+03 9.680847e-01 3.191526e-02
3.337446e-02 2.906117e+00 4.653278e+03 1.514201e+02 4.501857e+03 9.674595e-01 3.254052e-02
3.396489e-02 2.889627e+00 4.455118e+03 1.478014e+02 4.307317e+03 9.668244e-01 3.317564e-02
3.456576e-02 2.873282e+00 4.266133e+03 1.442838e+02 4.121850e+03 9.661793e-01 3.382074e-02
3.517727e-02 2.857077e+00 4.085851e+03 1.408634e+02 3.944988e+03 9.655241e-01 3.447591e-02
3.579959e-02 2.841009e+00 3.913828e+03 1.375369e+02 3.776291e+03 9.648587e-01 3.514126e-02
3.643293e-02 2.825074e+00 3.749644e+03 1.343007e+02 3.615343e+03 9.641831e-01 3.581691e-02
3.707747e-02 2.809270e+00 3.592906e+03 1.311517e+02 3.461754e+03 9.634970e-01 3.650296e-02
3.773341e-02 2.793592e+00 3.443239e+03 1.280868e+02 3.315153e+03 9.628005e-01 3.719951e-02
3.840096e-02 2.778039e+00 3.300294e+03 1.251032e+02 3.175191e+03 9.620933e-01 3.790668e-02
3.908031e-02 2.762606e+00 3.163737e+03 1.221980e+02 3.041539e+03 9.613754e-01 3.862458e-02
3.977168e-02 2.747292e+00 3.033256e+03 1.193687e+02 2.913887e+03 9.606467e-01 3.935331e-02
4.047529e-02 2.732093e+00 2.908553e+03 1.166126e+02 2.791940e+03 9.599070e-01 4.009299e-02
4.119134e-02 2.717007e+00 2.789348e+03 1.139273e+02 2.675420e+03 9.591563e-01 4.084372e-02
4.192006e-02 2.702031e+00 2.675376e+03 1.113107e+02 2.564065e+03 9.583944e-01 4.160562e-02
4.266168e-02 2.687163e+00 2.566386e+03 1.087603e+02 2.457626e+03 9.576212e-01 4.237879e-02
4.341641e-02 2.672401e+00 2.462140e+03 1.062742e+02 2.355866e+03 9.568367e-01 4.316333e-02
4.418449e-02 2.657741e+00 2.362414e+03 1.038502e+02 2.258563e+03 9.560406e-01 4.395937e-02
4.496616e-02 2.643183e+00 2.266993e+03 1.014865e+02 2.165506e+03 9.552330e-01 4.476700e-02
4.576167e-02 2.628723e+00 2.175675e+03 9.918106e+01 2.076494e+03 9.544137e-01 4.558634e-02
4.657124e-02 2.614359e+00 2.088270e+03 9.693221e+01 1.991338e+03 9.535825e-01 4.641748e-02
4.739514e-02 2.600090e+00 2.004594e+03 9.473818e+01 1.909856e+03 9.527395e-01 4.726053e-02
4.823361e-02 2.585913e+00 1.924476e+03 9.259732e+01 1.831879e+03 9.518844e-01 4.811561e-02
4.908692e-02 2.571827e+00 1.847752e+03 9.050806e+01 1.757244e+03 9.510172e-01 4.898280e-02
4.995532e-02 2.557829e+00 1.774266e+03 8.846886e+01 1.685797e+03 9.501378e-01 4.986222e-02
5.083908e-02 2.543918e+00 1.703872e+03 8.647827e+01 1.617394e+03 9.492460e-01 5.075398e-02
5.173848e-02 2.530092e+00 1.636428e+03 8.453488e+01 1.551894e+03 9.483418e-01 5.165816e-02
5.265379e-02 2.516349e+00 1.571803e+03 8.263732e+01 1.489165e+03 9.474251e-01 5.257487e-02
5.358530e-02 2.502689e+00 1.509868e+03 8.078431e+01 1.429084e+03 9.464958e-01 5.350421e-02
5.453328e-02 2.489108e+00 1.450505e+03 7.897457e+01 1.371530e+03 9.455537e-01 5.444627e-02
5.549804e-02 2.475606e+00 1.393597e+03 7.720690e+01 1.316390e+03 9.445989e-01 5.540115e-02
5.647986e-02 2.462181e+00 1.339037e+03 7.548012e+01 1.263557e+03 9.436311e-01 5.636894e-02
5.747905e-02 2.448831e+00 1.286721e+03 7.379309e+01 1.212928e+03 9.426503e-01 5.734974e-02
5.849592e-02 2.435555e+00 1.236549e+03 7.214475e+01 1.164404e+03 9.416564e-01 5.834363e-02
5.953077e-02 2.422352e+00 1.188428e+03 7.053403e+01 1.117894e+03 9.406493e-01 5.935069e-02
6.058394e-02 2.409220e+00 1.142269e+03 6.895993e+01 1.073309e+03 9.396290e-01 6.037103e-02
6.165574e-02 2.396157e+00 1.097985e+03 6.742147e+01 1.030564e+03 9.385953e-01 6.140471e-02
6.274649e-02 2.383164e+00 1.055497e+03 6.591771e+01 9.895794e+02 9.375482e-01 6.245182e-02
6.385655e-02 2.370237e+00 1.014726e+03 6.444775e+01 9.502786e+02 9.364876e-01 6.351244e-02
6.498624e-02 2.357377e+00 9.755995e+02 6.301069e+01 9.125888e+02 9.354134e-01 6.458664e-02
6.613592e-02 2.344581e+00 9.380460e+02 6.160570e+01 8.764403e+02 9.343255e-01 6.567450e-02
6.730594e-02 2.331850e+00 9.019989e+02 6.023196e+01 8.417670e+02 9.332239e-01 6.677609e-02
6.849666e-02 2.319180e+00 8.673943e+02 5.888866e+01 8.085056e+02 9.321085e-01 6.789146e-02
6.970844e-02 2.306573e+00 8.341707e+02 5.757504e+01 7.765957e+02 9.309793e-01 6.902069e-02
7.094166e-02 2.294025e+00 8.022702e+02 5.629035e+01 7.459798e+02 9.298362e-01 7.016383e-02
7.219669e-02 2.281537e+00 7.716368e+02 5.503386e+01 7.166029e+02 9.286791e-01 7.132095e-02
7.347393e-02 2.269107e+00 7.422174e+02 5.380489e+01 6.884126e+02 9.275079e-01 7.249208e-02
7.477377e-02 2.256734e+00 7.139615e+02 5.260274e+01 6.613587e+02 9.263227e-01 7.367729e-02
7.609660e-02 2.244418e+00 6.868203e+02 5.142677e+01 6.353935e+02 9.251234e-01 7.487661e-02
7.744283e-02 2.232156e+00 6.607476e+02 5.027635e+01 6.104713e+02 9.239099e-01 7.609009e-02
7.881288e-02 2.219949e+00 6.356993e+02 4.915084e+01 5.865484e+02 9.226822e-01 7.731776e-02
8.020717e-02 2.207795e+00 6.116330e+02 4.804967e+01 5.635833e+02 9.214403e-01 7.855965e-02
8.162612e-02 2.195694e+00 5.885083e+02 4.697226e+01 5.415360e+02 9.201842e-01 7.981580e-02
8.307018e-02 2.183644e+00 5.662865e+02 4.591803e+01 5.203685e+02 9.189138e-01 8.108621e-02
8.453978e-02 2.171646e+00 5.449308e+02 4.488645e+01 5.000444e+02 9.176291e-01 8.237092e-02
8.603539e-02 2.159697e+00 5.244058e+02 4.387700e+01 4.805288e+02 9.163301e-01 8.366993e-02
8.755745e-02 2.147797e+00 5.046777e+02 4.288915e+01 4.617885e+02 9.150167e-01 8.498325e-02
8.910644e-02 2.135946e+00 4.857140e+02 4.192240e+01 4.437916e+02 9.136891e-01 8.631088e-02
9.068283e-02 2.124142e+00 4.674840e+02 4.097628e+01 4.265077e+02 9.123472e-01 8.765281e-02
9.228711e-02 2.112385e+00 4.499578e+02 4.005031e+01 4.099075e+02 9.109910e-01 8.900904e-02
9.391977e-02 2.100674e+00 4.331073e+02 3.914404e+01 3.939632e+02 9.096205e-01 9.037954e-02
9.558131e-02 2.089008e+00 4.169051e+02 3.825701e+01 3.786481e+02 9.082357e-01 9.176430e-02
9.727225e-02 2.077387e+00 4.013255e+02 3.738881e+01 3.639367e+02 9.068367e-01 9.316329e-02
9.899311e-02 2.065810e+00 3.863434e+02 3.653900e+01 3.498044e+02 9.054235e-01 9.457647e-02
1.007444e-01 2.054276e+00 3.719351e+02 3.570719e+01 3.362279e+02 9.039962e-01 9.600381e-02
1.025267e-01 2.042785e+00 3.580777e+02 3.489297e+01 3.231847e+02 9.025548e-01 9.744524e-02
1.043405e-01 2.031335e+00 3.447494e+02 3.409596e+01 3.106534e+02 9.010993e-01 9.890072e-02
1.061864e-01 2.019928e+00 3.319291e+02 3.331579e+01 2.986133e+02 8.996298e-01 1.003702e-01
1.080649e-01 2.008561e+00 3.195969e+02 3.255209e+01 2.870448e+02 8.981464e-01 1.018536e-01
1.099767e-01 1.997234e+00 3.077335e+02 3.180450e+01 2.759290e+02 8.966492e-01 1.033508e-01
1.119223e-01 1.985947e+00 2.963204e+02 3.107267e+01 2.652477e+02 8.951382e-01 1.048618e-01
1.139024e-01 1.974699e+00 2.853399e+02 3.035628e+01 2.549836e+02 8.936136e-01 1.063864e-01
1.159174e-01 1.963490e+00 2.747751e+02 2.965498e+01 2.451201e+02 8.920754e-01 1.079246e-01
1.179681e-01 1.952318e+00 2.646097e+02 2.896847e+01 2.356412e+02 8.905238e-01 1.094762e-01
1.200551e-01 1.941185e+00 2.548281e+02 2.829642e+01 2.265317e+02 8.889588e-01 1.110412e-01
1.221790e-01 1.930088e+00 2.454154e+02 2.763853e+01 2.177769e+02 8.873806e-01 1.126194e-01
1.243405e-01 1.919028e+00 2.363573e+02 2.699451e+01 2.093628e+02 8.857894e-01 1.142106e-01
1.265402e-01 1.908003e+00 2.276399e+02 2.636407e+01 2.012758e+02 8.841852e-01 1.158148e-01
1.287789e-01 1.897015e+00 2.192501e+02 2.574693e+01 1.935031e+02 8.825682e-01 1.174318e-01
1.310571e-01 1.886062e+00 2.111751e+02 2.514280e+01 1.860323e+02 8.809386e-01 1.190614e-01
1.333757e-01 1.875144e+00 2.034030e+02 2.455144e+01 1.788515e+02 8.792966e-01 1.207034e-01
1.357352e-01 1.864260e+00 1.959219e+02 2.397257e+01 1.719493e+02 8.776422e-01 1.223578e-01
1.381365e-01 1.853410e+00 1.887207e+02 2.340593e+01 1.653147e+02 8.759758e-01 1.240242e-01
1.405803e-01 1.842594e+00 1.817886e+02 2.285129e+01 1.589373e+02 8.742974e-01 1.257026e-01
1.430673e-01 1.831811e+00 1.751153e+02 2.230839e+01 1.528069e+02 8.726074e-01 1.273926e-01
1.455984e-01 1.821061e+00 1.686909e+02 2.177700e+01 1.469139e+02 8.709059e-01 1.290941e-01
1.481742e-01 1.810344e+00 1.625058e+02 2.125689e+01 1.412489e+02 8.691931e-01 1.308069e-01
1.507955e-01 1.799659e+00 1.565510e+02 2.074783e+01 1.358032e+02 8.674693e-01 1.325307e-01
1.534633e-01 1.789006e+00 1.508177e+02 2.024959e+01 1.305681e+02 8.657346e-01 1.342654e-01
1.561782e-01 1.778385e+00 1.452974e+02 1.976198e+01 1.255354e+02 8.639895e-01 1.360105e-01
1.589412e-01 1.767795e+00 1.399820e+02 1.928476e+01 1.206972e+02 8.622340e-01 1.377660e-01
1.617530e-01 1.757236e+00 1.348638e+02 1.881775e+01 1.160460e+02 8.604685e-01 1.395315e-01
1.646146e-01 1.746709e+00 1.299353e+02 1.836073e+01 1.115745e+02 8.586933e-01 1.413067e-01
1.675268e-01 1.736212e+00 1.251892e+02 1.791351e+01 1.072757e+02 8.569086e-01 1.430914e-01
1.704906e-01 1.725746e+00 1.206188e+02 1.747589e+01 1.031429e+02 8.551147e-01 1.448853e-01
1.735067e-01 1.715310e+00 1.162174e+02 1.704770e+01 9.916969e+01 8.533120e-01 1.466880e-01
1.765763e-01 1.704904e+00 1.119786e+02 1.662874e+01 9.534982e+01 8.515007e-01 1.484993e-01
1.797001e-01 1.694528e+00 1.078962e+02 1.621883e+01 9.167737e+01 8.496812e-01 1.503188e-01
1.828792e-01 1.684182e+00 1.039644e+02 1.581780e+01 8.814664e+01 8.478537e-01 1.521463e-01
1.861145e-01 1.673865e+00 1.001776e+02 1.542548e+01 8.475213e+01 8.460187e-01 1.539813e-01
1.894071e-01 1.663578e+00 9.653028e+01 1.504169e+01 8.148859e+01 8.441765e-01 1.558235e-01
1.927579e-01 1.653320e+00 9.301721e+01 1.466627e+01 7.835095e+01 8.423274e-01 1.576726e-01
1.961680e-01 1.643092e+00 8.963339e+01 1.429906e+01 7.533433e+01 8.404717e-01 1.595283e-01
1.996384e-01 1.632893e+00 8.637397e+01 1.393990e+01 7.243407e+01 8.386099e-01 1.613901e-01
2.031703e-01 1.622723e+00 8.323431e+01 1.358864e+01 6.964567e+01 8.367424e-01 1.632576e-01
2.067646e-01 1.612582e+00 8.020994e+01 1.324512e+01 6.696483e+01 8.348694e-01 1.651306e-01
2.104225e-01 1.602470e+00 7.729656e+01 1.290919e+01 6.438737e+01 8.329914e-01 1.670086e-01
2.141451e-01 1.592387e+00 7.449003e+01 1.258072e+01 6.190932e+01 8.311087e-01 1.688913e-01
2.179335e-01 1.582333e+00 7.178638e+01 1.225954e+01 5.952684e+01 8.292219e-01 1.707781e-01
2.217890e-01 1.572308e+00 6.918178e+01 1.194553e+01 5.723625e+01 8.273312e-01 1.726688e-01
2.257127e-01 1.562312e+00 6.667255e+01 1.163855e+01 5.503400e+01 8.254371e-01 1.745629e-01
2.297058e-01 1.552345e+00 6.425515e+01 1.133846e+01 5.291669e+01 8.235400e-01 1.764600e-01
2.337696e-01 1.542407e+00 6.192617e+01 1.104513e+01 5.088104e+01 8.216404e-01 1.783596e-01
2.379052e-01 1.532499e+00 5.968234e+01 1.075843e+01 4.892391e+01 8.197385e-01 1.802615e-01
2.421140e-01 1.522619e+00 5.752051e+01 1.047823e+01 4.704228e+01 8.178349e-01 1.821651e-01
2.463973e-01 1.512768e+00 5.543764e+01 1.020440e+01 4.523324e+01 8.159300e-01 1.840700e-01
2.507563e-01 1.502947e+00 5.343081e+01 9.936835e+00 4.349398e+01 8.140243e-01 1.859757e-01
2.551925e-01 1.493155e+00 5.149722e+01 9.675400e+00 4.182182e+01 8.121180e-01 1.878820e-01
2.597071e-01 1.483393e+00 4.963416e+01 9.419980e+00 4.021418e+01 8.102118e-01 1.897882e-01
2.643016e-01 1.473661e+00 4.783903e+01 9.170459e+00 3.866857e+01 8.083059e-01 1.916941e-01
2.689774e-01 1.463958e+00 4.610933e+01 8.926724e+00 3.718260e+01 8.064009e-01 1.935991e-01
2.737359e-01 1.454285e+00 4.444264e+01 8.688661e+00 3.575398e+01 8.044972e-01 1.955028e-01
2.785786e-01 1.444642e+00 4.283665e+01 8.456162e+00 3.438049e+01 8.025952e-01 1.974048e-01
2.835070e-01 1.435030e+00 4.128912e+01 8.229117e+00 3.306000e+01 8.006953e-01 1.993047e-01
2.885225e-01 1.425448e+00 3.979791e+01 8.007420e+00 3.179049e+01 7.987980e-01 2.012020e-01
2.936268e-01 1.415897e+00 3.836094e+01 7.790967e+00 3.056997e+01 7.969036e-01 2.030964e-01
2.988214e-01 1.406377e+00 3.697622e+01 7.579655e+00 2.939657e+01 7.950127e-01 2.049873e-01
3.041079e-01 1.396888e+00 3.564184e+01 7.373384e+00 2.826846e+01 7.931256e-01 2.068744e-01
3.094879e-01 1.387430e+00 3.435595e+01 7.172053e+00 2.718390e+01 7.912428e-01 2.087572e-01
3.149631e-01 1.378004e+00 3.311678e+01 6.975565e+00 2.614121e+01 7.893646e-01 2.106354e-01
3.205351e-01 1.368610e+00 3.192260e+01 6.783824e+00 2.513877e+01 7.874915e-01 2.125085e-01
3.262057e-01 1.359248e+00 3.077177e+01 6.596735e+00 2.417504e+01 7.856238e-01 2.143762e-01
3.319767e-01 1.349918e+00 2.966271e+01 6.414206e+00 2.324851e+01 7.837620e-01 2.162380e-01
3.378497e-01 1.340621e+00 2.859389e+01 6.236145e+00 2.235774e+01 7.819064e-01 2.180936e-01
